time_unix,monotonic,press_abs,press_diff,temperature,baro_alt,climb,airspeed,groundspeed
1778616619.424,6916.433,0.0,0.0,0.0,0.0,0.0,0.0,0.0
1778616620.377,6917.386,0.0,0.0,0.0,0.0,0.0,0.0,0.0
1778616621.380,6918.389,0.0,0.0,0.0,0.0,0.0,0.0,0.0
1778616622.383,6919.392,0.0,0.0,0.0,0.0,0.0,0.0,0.0
1778616623.386,6920.395,0.0,0.0,0.0,0.0,0.0,0.0,0.0
1778616624.389,6921.398,0.0,0.0,0.0,0.0,0.0,0.0,0.0
1778616625.392,6922.401,0.0,0.0,0.0,0.0,0.0,0.0,0.0
1778616626.394,6923.404,0.0,0.0,0.0,0.0,0.0,0.0,0.0
1778616627.398,6924.407,0.0,0.0,0.0,0.0,0.0,0.0,0.0
1778616628.401,6925.410,0.0,0.0,0.0,0.0,0.0,0.0,0.0
1778616629.404,6926.413,0.0,0.0,0.0,0.0,0.0,0.0,0.0
1778616630.408,6927.417,0.0,0.0,0.0,0.0,0.0,0.0,0.0
1778616631.410,6928.419,0.0,0.0,0.0,0.0,0.0,0.0,0.0
1778616632.413,6929.422,0.0,0.0,0.0,0.0,0.0,0.0,0.0
1778616633.416,6930.425,0.0,0.0,0.0,0.0,0.0,0.0,0.0
1778616634.419,6931.428,0.0,0.0,0.0,0.0,0.0,0.0,0.0
1778616635.422,6932.431,0.0,0.0,0.0,0.0,0.0,0.0,0.0
1778616636.375,6933.384,0.0,0.0,0.0,0.0,0.0,0.0,0.0
1778616637.378,6934.387,0.0,0.0,0.0,0.0,0.0,0.0,0.0
1778616638.381,6935.390,0.0,0.0,0.0,0.0,0.0,0.0,0.0
1778616639.384,6936.393,0.0,0.0,0.0,0.0,0.0,0.0,0.0
1778616640.387,6937.396,0.0,0.0,0.0,0.0,0.0,0.0,0.0
1778616641.390,6938.399,0.0,0.0,0.0,0.0,0.0,0.0,0.0
1778616642.393,6939.402,0.0,0.0,0.0,0.0,0.0,0.0,0.0
1778616643.396,6940.405,0.0,0.0,0.0,0.0,0.0,0.0,0.0
1778616644.399,6941.408,0.0,0.0,0.0,0.0,0.0,0.0,0.0
1778616645.402,6942.411,0.0,0.0,0.0,0.0,0.0,0.0,0.0
1778616646.405,6943.414,0.0,0.0,0.0,0.0,0.0,0.0,0.0
1778616647.408,6944.417,0.0,0.0,0.0,0.0,0.0,0.0,0.0
1778616648.411,6945.420,0.0,0.0,0.0,0.0,0.0,0.0,0.0
1778616649.414,6946.423,0.0,0.0,0.0,0.0,0.0,0.0,0.0
1778616650.417,6947.426,0.0,0.0,0.0,0.0,0.0,0.0,0.0
1778616651.420,6948.429,0.0,0.0,0.0,0.0,0.0,0.0,0.0
1778616652.423,6949.432,0.0,0.0,0.0,0.0,0.0,0.0,0.0
1778616653.375,6950.384,0.0,0.0,0.0,0.0,0.0,0.0,0.0
1778616654.378,6951.387,0.0,0.0,0.0,0.0,0.0,0.0,0.0
1778616655.381,6952.390,0.0,0.0,0.0,0.0,0.0,0.0,0.0
1778616656.384,6953.393,0.0,0.0,0.0,0.0,0.0,0.0,0.0
1778616657.387,6954.396,0.0,0.0,0.0,0.0,0.0,0.0,0.0
1778616658.390,6955.399,0.0,0.0,0.0,0.0,0.0,0.0,0.0
1778616659.393,6956.402,0.0,0.0,0.0,0.0,0.0,0.0,0.0
1778616660.396,6957.405,0.0,0.0,0.0,0.0,0.0,0.0,0.0
1778616661.399,6958.408,0.0,0.0,0.0,0.0,0.0,0.0,0.0
1778616662.402,6959.411,0.0,0.0,0.0,0.0,0.0,0.0,0.0
1778616663.405,6960.414,0.0,0.0,0.0,0.0,0.0,0.0,0.0
1778616664.408,6961.417,0.0,0.0,0.0,0.0,0.0,0.0,0.0
1778616665.411,6962.420,0.0,0.0,0.0,0.0,0.0,0.0,0.0
1778616666.414,6963.423,0.0,0.0,0.0,0.0,0.0,0.0,0.0
1778616667.417,6964.426,0.0,0.0,0.0,0.0,0.0,0.0,0.0
1778616668.420,6965.429,0.0,0.0,0.0,0.0,0.0,0.0,0.0
1778616669.423,6966.432,0.0,0.0,0.0,0.0,0.0,0.0,0.0
1778616670.376,6967.385,0.0,0.0,0.0,0.0,0.0,0.0,0.0
1778616671.379,6968.388,0.0,0.0,0.0,0.0,0.0,0.0,0.0
1778616672.382,6969.391,0.0,0.0,0.0,0.0,0.0,0.0,0.0
1778616673.385,6970.394,0.0,0.0,0.0,0.0,0.0,0.0,0.0
1778616674.388,6971.397,0.0,0.0,0.0,0.0,0.0,0.0,0.0
1778616675.391,6972.400,0.0,0.0,0.0,0.0,0.0,0.0,0.0
1778616676.394,6973.403,0.0,0.0,0.0,0.0,0.0,0.0,0.0
1778616677.397,6974.406,0.0,0.0,0.0,0.0,0.0,0.0,0.0
1778616678.400,6975.409,0.0,0.0,0.0,0.0,0.0,0.0,0.0
1778616679.403,6976.412,0.0,0.0,0.0,0.0,0.0,0.0,0.0
1778616680.406,6977.415,0.0,0.0,0.0,0.0,0.0,0.0,0.0
1778616681.409,6978.418,0.0,0.0,0.0,0.0,0.0,0.0,0.0
1778616682.412,6979.421,0.0,0.0,0.0,0.0,0.0,0.0,0.0
1778616683.415,6980.424,0.0,0.0,0.0,0.0,0.0,0.0,0.0
1778616684.418,6981.427,0.0,0.0,0.0,0.0,0.0,0.0,0.0
1778616685.421,6982.430,0.0,0.0,0.0,0.0,0.0,0.0,0.0
1778616686.374,6983.383,0.0,0.0,0.0,0.0,0.0,0.0,0.0
1778616687.377,6984.386,0.0,0.0,0.0,0.0,0.0,0.0,0.0
1778616688.380,6985.389,0.0,0.0,0.0,0.0,0.0,0.0,0.0
1778616689.383,6986.392,0.0,0.0,0.0,0.0,0.0,0.0,0.0
1778616690.386,6987.395,0.0,0.0,0.0,0.0,0.0,0.0,0.0
1778616691.389,6988.398,0.0,0.0,0.0,0.0,0.0,0.0,0.0
1778616692.392,6989.401,0.0,0.0,0.0,0.0,0.0,0.0,0.0
1778616693.395,6990.404,0.0,0.0,0.0,0.0,0.0,0.0,0.0
1778616694.398,6991.407,0.0,0.0,0.0,0.0,0.0,0.0,0.0
1778616695.401,6992.411,0.0,0.0,0.0,0.0,0.0,0.0,0.0
1778616696.404,6993.414,0.0,0.0,0.0,0.0,0.0,0.0,0.0
1778616697.407,6994.416,0.0,0.0,0.0,0.0,0.0,0.0,0.0
1778616698.410,6995.419,0.0,0.0,0.0,0.0,0.0,0.0,0.0
1778616699.413,6996.422,0.0,0.0,0.0,0.0,0.0,0.0,0.0
1778616700.416,6997.425,0.0,0.0,0.0,0.0,0.0,0.0,0.0
1778616701.419,6998.428,0.0,0.0,0.0,0.0,0.0,0.0,0.0
1778616702.422,6999.431,0.0,0.0,0.0,0.0,0.0,0.0,0.0
1778616703.375,7000.384,0.0,0.0,0.0,0.0,0.0,0.0,0.0
1778616704.378,7001.387,0.0,0.0,0.0,0.0,0.0,0.0,0.0
1778616705.381,7002.390,0.0,0.0,0.0,0.0,0.0,0.0,0.0
1778616706.384,7003.393,0.0,0.0,0.0,0.0,0.0,0.0,0.0
1778616707.387,7004.396,0.0,0.0,0.0,0.0,0.0,0.0,0.0
1778616708.390,7005.399,0.0,0.0,0.0,0.0,0.0,0.0,0.0
1778616709.393,7006.402,0.0,0.0,0.0,0.0,0.0,0.0,0.0
1778616710.396,7007.405,0.0,0.0,0.0,0.0,0.0,0.0,0.0
1778616711.399,7008.408,0.0,0.0,0.0,0.0,0.0,0.0,0.0
1778616712.402,7009.411,0.0,0.0,0.0,0.0,0.0,0.0,0.0
1778616713.405,7010.414,0.0,0.0,0.0,0.0,0.0,0.0,0.0
1778616714.408,7011.417,0.0,0.0,0.0,0.0,0.0,0.0,0.0
1778616715.410,7012.419,0.0,0.0,0.0,0.0,0.0,0.0,0.0
1778616716.413,7013.422,0.0,0.0,0.0,0.0,0.0,0.0,0.0
1778616717.417,7014.426,0.0,0.0,0.0,0.0,0.0,0.0,0.0
1778616718.420,7015.429,0.0,0.0,0.0,0.0,0.0,0.0,0.0
1778616719.423,7016.432,0.0,0.0,0.0,0.0,0.0,0.0,0.0
1778616720.375,7017.384,0.0,0.0,0.0,0.0,0.0,0.0,0.0
1778616721.378,7018.387,0.0,0.0,0.0,0.0,0.0,0.0,0.0
1778616722.381,7019.390,0.0,0.0,0.0,0.0,0.0,0.0,0.0
1778616723.384,7020.393,0.0,0.0,0.0,0.0,0.0,0.0,0.0
1778616724.387,7021.396,0.0,0.0,0.0,0.0,0.0,0.0,0.0
1778616725.390,7022.399,0.0,0.0,0.0,0.0,0.0,0.0,0.0
1778616726.393,7023.402,0.0,0.0,0.0,0.0,0.0,0.0,0.0
1778616727.396,7024.405,0.0,0.0,0.0,0.0,0.0,0.0,0.0
1778616728.399,7025.408,0.0,0.0,0.0,0.0,0.0,0.0,0.0
1778616729.402,7026.411,0.0,0.0,0.0,0.0,0.0,0.0,0.0
1778616730.405,7027.414,0.0,0.0,0.0,0.0,0.0,0.0,0.0
1778616731.408,7028.417,0.0,0.0,0.0,0.0,0.0,0.0,0.0
1778616732.411,7029.420,0.0,0.0,0.0,0.0,0.0,0.0,0.0
1778616733.414,7030.423,0.0,0.0,0.0,0.0,0.0,0.0,0.0
1778616734.417,7031.426,0.0,0.0,0.0,0.0,0.0,0.0,0.0
1778616735.420,7032.429,0.0,0.0,0.0,0.0,0.0,0.0,0.0
1778616736.423,7033.432,0.0,0.0,0.0,0.0,0.0,0.0,0.0
1778616737.376,7034.385,0.0,0.0,0.0,0.0,0.0,0.0,0.0
1778616738.379,7035.388,0.0,0.0,0.0,0.0,0.0,0.0,0.0
1778616739.382,7036.391,0.0,0.0,0.0,0.0,0.0,0.0,0.0
1778616740.385,7037.394,0.0,0.0,0.0,0.0,0.0,0.0,0.0
1778616741.388,7038.397,0.0,0.0,0.0,0.0,0.0,0.0,0.0
1778616742.391,7039.400,0.0,0.0,0.0,0.0,0.0,0.0,0.0
1778616743.394,7040.403,0.0,0.0,0.0,0.0,0.0,0.0,0.0
1778616744.397,7041.406,0.0,0.0,0.0,0.0,0.0,0.0,0.0
1778616745.400,7042.409,0.0,0.0,0.0,0.0,0.0,0.0,0.0
1778616746.403,7043.412,0.0,0.0,0.0,0.0,0.0,0.0,0.0
1778616747.406,7044.415,0.0,0.0,0.0,0.0,0.0,0.0,0.0
1778616748.409,7045.418,0.0,0.0,0.0,0.0,0.0,0.0,0.0
1778616749.412,7046.421,0.0,0.0,0.0,0.0,0.0,0.0,0.0
1778616750.415,7047.424,0.0,0.0,0.0,0.0,0.0,0.0,0.0
1778616751.418,7048.427,0.0,0.0,0.0,0.0,0.0,0.0,0.0
1778616752.421,7049.431,0.0,0.0,0.0,0.0,0.0,0.0,0.0
1778616753.374,7050.383,0.0,0.0,0.0,0.0,0.0,0.0,0.0
1778616754.377,7051.386,0.0,0.0,0.0,0.0,0.0,0.0,0.0
1778616755.381,7052.390,0.0,0.0,0.0,0.0,0.0,0.0,0.0
1778616756.384,7053.393,0.0,0.0,0.0,0.0,0.0,0.0,0.0
1778616757.387,7054.396,0.0,0.0,0.0,0.0,0.0,0.0,0.0
1778616758.390,7055.399,0.0,0.0,0.0,0.0,0.0,0.0,0.0
1778616759.393,7056.402,0.0,0.0,0.0,0.0,0.0,0.0,0.0
1778616760.396,7057.405,0.0,0.0,0.0,0.0,0.0,0.0,0.0
1778616761.399,7058.408,0.0,0.0,0.0,0.0,0.0,0.0,0.0
1778616762.402,7059.411,0.0,0.0,0.0,0.0,0.0,0.0,0.0
1778616763.405,7060.414,0.0,0.0,0.0,0.0,0.0,0.0,0.0
1778616764.408,7061.417,0.0,0.0,0.0,0.0,0.0,0.0,0.0
1778616765.411,7062.420,0.0,0.0,0.0,0.0,0.0,0.0,0.0
1778616766.414,7063.423,0.0,0.0,0.0,0.0,0.0,0.0,0.0
1778616767.417,7064.426,0.0,0.0,0.0,0.0,0.0,0.0,0.0
1778616768.420,7065.429,0.0,0.0,0.0,0.0,0.0,0.0,0.0
1778616769.422,7066.432,0.0,0.0,0.0,0.0,0.0,0.0,0.0
1778616770.375,7067.385,0.0,0.0,0.0,0.0,0.0,0.0,0.0
1778616771.379,7068.388,0.0,0.0,0.0,0.0,0.0,0.0,0.0
1778616772.381,7069.391,0.0,0.0,0.0,0.0,0.0,0.0,0.0
1778616773.385,7070.394,0.0,0.0,0.0,0.0,0.0,0.0,0.0
1778616774.388,7071.397,0.0,0.0,0.0,0.0,0.0,0.0,0.0
1778616775.390,7072.400,0.0,0.0,0.0,0.0,0.0,0.0,0.0
1778616776.393,7073.402,0.0,0.0,0.0,0.0,0.0,0.0,0.0
1778616777.396,7074.406,0.0,0.0,0.0,0.0,0.0,0.0,0.0
1778616778.399,7075.409,0.0,0.0,0.0,0.0,0.0,0.0,0.0
1778616779.402,7076.411,0.0,0.0,0.0,0.0,0.0,0.0,0.0
1778616780.405,7077.414,0.0,0.0,0.0,0.0,0.0,0.0,0.0
1778616781.409,7078.418,0.0,0.0,0.0,0.0,0.0,0.0,0.0
1778616782.412,7079.421,0.0,0.0,0.0,0.0,0.0,0.0,0.0
1778616783.415,7080.424,0.0,0.0,0.0,0.0,0.0,0.0,0.0
1778616784.418,7081.427,0.0,0.0,0.0,0.0,0.0,0.0,0.0
1778616785.422,7082.431,0.0,0.0,0.0,0.0,0.0,0.0,0.0
1778616786.375,7083.384,0.0,0.0,0.0,0.0,0.0,0.0,0.0
1778616787.378,7084.387,0.0,0.0,0.0,0.0,0.0,0.0,0.0
1778616788.381,7085.390,0.0,0.0,0.0,0.0,0.0,0.0,0.0
1778616789.384,7086.393,0.0,0.0,0.0,0.0,0.0,0.0,0.0
1778616790.387,7087.396,0.0,0.0,0.0,0.0,0.0,0.0,0.0
1778616791.390,7088.399,0.0,0.0,0.0,0.0,0.0,0.0,0.0
1778616792.393,7089.402,0.0,0.0,0.0,0.0,0.0,0.0,0.0
1778616793.396,7090.405,0.0,0.0,0.0,0.0,0.0,0.0,0.0
1778616794.399,7091.408,0.0,0.0,0.0,0.0,0.0,0.0,0.0
1778616795.402,7092.411,0.0,0.0,0.0,0.0,0.0,0.0,0.0
1778616796.405,7093.414,0.0,0.0,0.0,0.0,0.0,0.0,0.0
1778616797.408,7094.417,0.0,0.0,0.0,0.0,0.0,0.0,0.0
1778616798.411,7095.420,0.0,0.0,0.0,0.0,0.0,0.0,0.0
1778616799.414,7096.423,0.0,0.0,0.0,0.0,0.0,0.0,0.0
1778616800.417,7097.426,0.0,0.0,0.0,0.0,0.0,0.0,0.0
1778616801.420,7098.429,0.0,0.0,0.0,0.0,0.0,0.0,0.0
1778616802.423,7099.432,0.0,0.0,0.0,0.0,0.0,0.0,0.0
1778616803.376,7100.385,0.0,0.0,0.0,0.0,0.0,0.0,0.0
1778616804.379,7101.388,0.0,0.0,0.0,0.0,0.0,0.0,0.0
1778616805.382,7102.391,0.0,0.0,0.0,0.0,0.0,0.0,0.0
1778616806.385,7103.394,0.0,0.0,0.0,0.0,0.0,0.0,0.0
1778616807.388,7104.397,0.0,0.0,0.0,0.0,0.0,0.0,0.0
1778616808.391,7105.400,0.0,0.0,0.0,0.0,0.0,0.0,0.0
1778616809.394,7106.403,0.0,0.0,0.0,0.0,0.0,0.0,0.0
1778616810.397,7107.406,0.0,0.0,0.0,0.0,0.0,0.0,0.0
1778616811.400,7108.409,0.0,0.0,0.0,0.0,0.0,0.0,0.0
1778616812.403,7109.412,0.0,0.0,0.0,0.0,0.0,0.0,0.0
1778616813.406,7110.415,0.0,0.0,0.0,0.0,0.0,0.0,0.0
1778616814.409,7111.418,0.0,0.0,0.0,0.0,0.0,0.0,0.0
1778616815.412,7112.421,0.0,0.0,0.0,0.0,0.0,0.0,0.0
1778616816.415,7113.424,0.0,0.0,0.0,0.0,0.0,0.0,0.0
1778616817.418,7114.427,0.0,0.0,0.0,0.0,0.0,0.0,0.0
1778616818.421,7115.430,0.0,0.0,0.0,0.0,0.0,0.0,0.0
1778616819.424,7116.433,0.0,0.0,0.0,0.0,0.0,0.0,0.0
1778616820.377,7117.386,0.0,0.0,0.0,0.0,0.0,0.0,0.0
1778616821.380,7118.389,0.0,0.0,0.0,0.0,0.0,0.0,0.0
1778616822.383,7119.392,0.0,0.0,0.0,0.0,0.0,0.0,0.0
1778616823.386,7120.395,0.0,0.0,0.0,0.0,0.0,0.0,0.0
1778616824.389,7121.398,0.0,0.0,0.0,0.0,0.0,0.0,0.0
1778616825.392,7122.401,0.0,0.0,0.0,0.0,0.0,0.0,0.0
1778616826.395,7123.404,0.0,0.0,0.0,0.0,0.0,0.0,0.0
1778616827.398,7124.407,0.0,0.0,0.0,0.0,0.0,0.0,0.0
1778616828.401,7125.410,0.0,0.0,0.0,0.0,0.0,0.0,0.0
1778616829.404,7126.413,0.0,0.0,0.0,0.0,0.0,0.0,0.0
1778616830.407,7127.416,0.0,0.0,0.0,0.0,0.0,0.0,0.0
1778616831.410,7128.419,0.0,0.0,0.0,0.0,0.0,0.0,0.0
1778616832.413,7129.422,0.0,0.0,0.0,0.0,0.0,0.0,0.0
1778616833.416,7130.425,0.0,0.0,0.0,0.0,0.0,0.0,0.0
1778616834.419,7131.428,0.0,0.0,0.0,0.0,0.0,0.0,0.0
1778616835.422,7132.431,0.0,0.0,0.0,0.0,0.0,0.0,0.0
1778616836.375,7133.384,0.0,0.0,0.0,0.0,0.0,0.0,0.0
1778616837.378,7134.387,0.0,0.0,0.0,0.0,0.0,0.0,0.0
1778616838.381,7135.390,0.0,0.0,0.0,0.0,0.0,0.0,0.0
1778616839.384,7136.393,0.0,0.0,0.0,0.0,0.0,0.0,0.0
1778616840.387,7137.396,0.0,0.0,0.0,0.0,0.0,0.0,0.0
1778616841.389,7138.399,0.0,0.0,0.0,0.0,0.0,0.0,0.0
1778616842.392,7139.402,0.0,0.0,0.0,0.0,0.0,0.0,0.0
1778616843.396,7140.405,0.0,0.0,0.0,0.0,0.0,0.0,0.0
1778616844.399,7141.408,0.0,0.0,0.0,0.0,0.0,0.0,0.0
1778616845.402,7142.411,0.0,0.0,0.0,0.0,0.0,0.0,0.0
1778616846.405,7143.414,0.0,0.0,0.0,0.0,0.0,0.0,0.0
1778616847.408,7144.417,0.0,0.0,0.0,0.0,0.0,0.0,0.0
1778616848.411,7145.420,0.0,0.0,0.0,0.0,0.0,0.0,0.0
1778616849.414,7146.423,0.0,0.0,0.0,0.0,0.0,0.0,0.0
1778616850.417,7147.426,0.0,0.0,0.0,0.0,0.0,0.0,0.0
1778616851.420,7148.429,0.0,0.0,0.0,0.0,0.0,0.0,0.0
1778616852.423,7149.432,0.0,0.0,0.0,0.0,0.0,0.0,0.0
1778616853.376,7150.386,0.0,0.0,0.0,0.0,0.0,0.0,0.0
1778616854.380,7151.389,0.0,0.0,0.0,0.0,0.0,0.0,0.0
1778616855.383,7152.392,0.0,0.0,0.0,0.0,0.0,0.0,0.0
1778616856.386,7153.395,0.0,0.0,0.0,0.0,0.0,0.0,0.0
1778616857.389,7154.398,0.0,0.0,0.0,0.0,0.0,0.0,0.0
1778616858.392,7155.401,0.0,0.0,0.0,0.0,0.0,0.0,0.0
1778616859.395,7156.404,0.0,0.0,0.0,0.0,0.0,0.0,0.0
1778616860.398,7157.407,0.0,0.0,0.0,0.0,0.0,0.0,0.0
1778616861.401,7158.410,0.0,0.0,0.0,0.0,0.0,0.0,0.0
1778616862.404,7159.413,0.0,0.0,0.0,0.0,0.0,0.0,0.0
1778616863.407,7160.416,0.0,0.0,0.0,0.0,0.0,0.0,0.0
1778616864.410,7161.419,0.0,0.0,0.0,0.0,0.0,0.0,0.0
1778616865.413,7162.422,0.0,0.0,0.0,0.0,0.0,0.0,0.0
1778616866.416,7163.425,0.0,0.0,0.0,0.0,0.0,0.0,0.0
1778616867.419,7164.428,0.0,0.0,0.0,0.0,0.0,0.0,0.0
1778616868.422,7165.431,0.0,0.0,0.0,0.0,0.0,0.0,0.0
1778616869.375,7166.384,0.0,0.0,0.0,0.0,0.0,0.0,0.0
1778616870.378,7167.387,0.0,0.0,0.0,0.0,0.0,0.0,0.0
1778616871.381,7168.390,0.0,0.0,0.0,0.0,0.0,0.0,0.0
1778616872.384,7169.393,0.0,0.0,0.0,0.0,0.0,0.0,0.0
1778616873.387,7170.396,0.0,0.0,0.0,0.0,0.0,0.0,0.0
1778616874.390,7171.399,0.0,0.0,0.0,0.0,0.0,0.0,0.0
1778616875.393,7172.402,0.0,0.0,0.0,0.0,0.0,0.0,0.0
1778616876.396,7173.405,0.0,0.0,0.0,0.0,0.0,0.0,0.0
1778616877.399,7174.408,0.0,0.0,0.0,0.0,0.0,0.0,0.0
1778616878.403,7175.412,0.0,0.0,0.0,0.0,0.0,0.0,0.0
1778616879.405,7176.414,0.0,0.0,0.0,0.0,0.0,0.0,0.0
1778616880.409,7177.418,0.0,0.0,0.0,0.0,0.0,0.0,0.0
1778616881.412,7178.421,0.0,0.0,0.0,0.0,0.0,0.0,0.0
1778616882.415,7179.424,0.0,0.0,0.0,0.0,0.0,0.0,0.0
1778616883.418,7180.427,0.0,0.0,0.0,0.0,0.0,0.0,0.0
1778616884.421,7181.430,0.0,0.0,0.0,0.0,0.0,0.0,0.0
1778616885.374,7182.383,0.0,0.0,0.0,0.0,0.0,0.0,0.0
1778616886.377,7183.386,0.0,0.0,0.0,0.0,0.0,0.0,0.0
1778616887.380,7184.389,0.0,0.0,0.0,0.0,0.0,0.0,0.0
1778616888.383,7185.392,0.0,0.0,0.0,0.0,0.0,0.0,0.0
1778616889.386,7186.395,0.0,0.0,0.0,0.0,0.0,0.0,0.0
1778616890.389,7187.398,0.0,0.0,0.0,0.0,0.0,0.0,0.0
1778616891.392,7188.401,0.0,0.0,0.0,0.0,0.0,0.0,0.0
1778616892.395,7189.404,0.0,0.0,0.0,0.0,0.0,0.0,0.0
1778616893.398,7190.407,0.0,0.0,0.0,0.0,0.0,0.0,0.0
1778616894.401,7191.410,0.0,0.0,0.0,0.0,0.0,0.0,0.0
1778616895.404,7192.413,0.0,0.0,0.0,0.0,0.0,0.0,0.0
1778616896.407,7193.416,0.0,0.0,0.0,0.0,0.0,0.0,0.0
1778616897.410,7194.419,0.0,0.0,0.0,0.0,0.0,0.0,0.0
1778616898.413,7195.422,0.0,0.0,0.0,0.0,0.0,0.0,0.0
1778616899.416,7196.425,0.0,0.0,0.0,0.0,0.0,0.0,0.0
1778616900.419,7197.428,0.0,0.0,0.0,0.0,0.0,0.0,0.0
1778616901.422,7198.431,0.0,0.0,0.0,0.0,0.0,0.0,0.0
1778616902.375,7199.384,0.0,0.0,0.0,0.0,0.0,0.0,0.0
1778616903.378,7200.387,0.0,0.0,0.0,0.0,0.0,0.0,0.0
1778616904.381,7201.390,0.0,0.0,0.0,0.0,0.0,0.0,0.0
1778616905.384,7202.393,0.0,0.0,0.0,0.0,0.0,0.0,0.0
1778616906.387,7203.396,0.0,0.0,0.0,0.0,0.0,0.0,0.0
1778616907.390,7204.399,0.0,0.0,0.0,0.0,0.0,0.0,0.0
1778616908.394,7205.403,0.0,0.0,0.0,0.0,0.0,0.0,0.0
1778616909.397,7206.406,0.0,0.0,0.0,0.0,0.0,0.0,0.0
1778616910.400,7207.409,0.0,0.0,0.0,0.0,0.0,0.0,0.0
1778616911.403,7208.412,0.0,0.0,0.0,0.0,0.0,0.0,0.0
1778616912.406,7209.415,0.0,0.0,0.0,0.0,0.0,0.0,0.0
1778616913.408,7210.418,0.0,0.0,0.0,0.0,0.0,0.0,0.0
1778616914.412,7211.421,0.0,0.0,0.0,0.0,0.0,0.0,0.0
1778616915.415,7212.424,0.0,0.0,0.0,0.0,0.0,0.0,0.0
1778616916.418,7213.427,0.0,0.0,0.0,0.0,0.0,0.0,0.0
1778616917.421,7214.430,0.0,0.0,0.0,0.0,0.0,0.0,0.0
1778616918.424,7215.433,0.0,0.0,0.0,0.0,0.0,0.0,0.0
1778616919.377,7216.386,0.0,0.0,0.0,0.0,0.0,0.0,0.0
1778616920.380,7217.389,0.0,0.0,0.0,0.0,0.0,0.0,0.0
1778616921.383,7218.392,0.0,0.0,0.0,0.0,0.0,0.0,0.0
1778616922.386,7219.395,0.0,0.0,0.0,0.0,0.0,0.0,0.0
1778616923.389,7220.398,0.0,0.0,0.0,0.0,0.0,0.0,0.0
1778616924.392,7221.401,0.0,0.0,0.0,0.0,0.0,0.0,0.0
1778616925.395,7222.404,0.0,0.0,0.0,0.0,0.0,0.0,0.0
1778616926.398,7223.407,0.0,0.0,0.0,0.0,0.0,0.0,0.0
1778616927.401,7224.410,0.0,0.0,0.0,0.0,0.0,0.0,0.0
1778616928.404,7225.413,0.0,0.0,0.0,0.0,0.0,0.0,0.0
1778616929.407,7226.416,0.0,0.0,0.0,0.0,0.0,0.0,0.0
1778616930.410,7227.419,0.0,0.0,0.0,0.0,0.0,0.0,0.0
1778616931.412,7228.422,0.0,0.0,0.0,0.0,0.0,0.0,0.0
1778616932.415,7229.424,0.0,0.0,0.0,0.0,0.0,0.0,0.0
1778616933.418,7230.427,0.0,0.0,0.0,0.0,0.0,0.0,0.0
1778616934.421,7231.431,0.0,0.0,0.0,0.0,0.0,0.0,0.0
1778616935.374,7232.383,0.0,0.0,0.0,0.0,0.0,0.0,0.0
1778616936.377,7233.386,0.0,0.0,0.0,0.0,0.0,0.0,0.0
1778616937.380,7234.389,0.0,0.0,0.0,0.0,0.0,0.0,0.0
1778616938.383,7235.393,0.0,0.0,0.0,0.0,0.0,0.0,0.0
1778616939.386,7236.396,0.0,0.0,0.0,0.0,0.0,0.0,0.0
1778616940.389,7237.398,0.0,0.0,0.0,0.0,0.0,0.0,0.0
1778616941.392,7238.401,0.0,0.0,0.0,0.0,0.0,0.0,0.0
1778616942.396,7239.405,0.0,0.0,0.0,0.0,0.0,0.0,0.0
1778616943.399,7240.408,0.0,0.0,0.0,0.0,0.0,0.0,0.0
1778616944.402,7241.411,0.0,0.0,0.0,0.0,0.0,0.0,0.0
1778616945.405,7242.414,0.0,0.0,0.0,0.0,0.0,0.0,0.0
1778616946.408,7243.417,0.0,0.0,0.0,0.0,0.0,0.0,0.0
1778616947.411,7244.420,0.0,0.0,0.0,0.0,0.0,0.0,0.0
1778616948.414,7245.423,0.0,0.0,0.0,0.0,0.0,0.0,0.0
1778616949.417,7246.426,0.0,0.0,0.0,0.0,0.0,0.0,0.0
1778616950.420,7247.429,0.0,0.0,0.0,0.0,0.0,0.0,0.0
1778616951.423,7248.432,0.0,0.0,0.0,0.0,0.0,0.0,0.0
1778616952.376,7249.385,0.0,0.0,0.0,0.0,0.0,0.0,0.0
1778616953.379,7250.388,0.0,0.0,0.0,0.0,0.0,0.0,0.0
1778616954.382,7251.391,0.0,0.0,0.0,0.0,0.0,0.0,0.0
1778616955.385,7252.394,0.0,0.0,0.0,0.0,0.0,0.0,0.0
1778616956.388,7253.397,0.0,0.0,0.0,0.0,0.0,0.0,0.0
1778616957.391,7254.400,0.0,0.0,0.0,0.0,0.0,0.0,0.0
1778616958.394,7255.403,0.0,0.0,0.0,0.0,0.0,0.0,0.0
1778616959.397,7256.406,0.0,0.0,0.0,0.0,0.0,0.0,0.0
1778616960.400,7257.409,0.0,0.0,0.0,0.0,0.0,0.0,0.0
1778616961.403,7258.412,0.0,0.0,0.0,0.0,0.0,0.0,0.0
1778616962.406,7259.415,0.0,0.0,0.0,0.0,0.0,0.0,0.0
1778616963.409,7260.418,0.0,0.0,0.0,0.0,0.0,0.0,0.0
1778616964.412,7261.421,0.0,0.0,0.0,0.0,0.0,0.0,0.0
1778616965.415,7262.424,0.0,0.0,0.0,0.0,0.0,0.0,0.0
1778616966.418,7263.427,0.0,0.0,0.0,0.0,0.0,0.0,0.0
1778616967.421,7264.431,0.0,0.0,0.0,0.0,0.0,0.0,0.0
1778616968.374,7265.383,0.0,0.0,0.0,0.0,0.0,0.0,0.0
1778616969.378,7266.387,0.0,0.0,0.0,0.0,0.0,0.0,0.0
1778616970.381,7267.390,0.0,0.0,0.0,0.0,0.0,0.0,0.0
1778616971.384,7268.393,0.0,0.0,0.0,0.0,0.0,0.0,0.0
1778616972.387,7269.396,0.0,0.0,0.0,0.0,0.0,0.0,0.0
1778616973.390,7270.399,0.0,0.0,0.0,0.0,0.0,0.0,0.0
1778616974.393,7271.402,0.0,0.0,0.0,0.0,0.0,0.0,0.0
1778616975.396,7272.405,0.0,0.0,0.0,0.0,0.0,0.0,0.0
1778616976.399,7273.408,0.0,0.0,0.0,0.0,0.0,0.0,0.0
1778616977.402,7274.411,0.0,0.0,0.0,0.0,0.0,0.0,0.0
1778616978.405,7275.414,0.0,0.0,0.0,0.0,0.0,0.0,0.0
1778616979.408,7276.417,0.0,0.0,0.0,0.0,0.0,0.0,0.0
1778616980.411,7277.420,0.0,0.0,0.0,0.0,0.0,0.0,0.0
1778616981.414,7278.423,0.0,0.0,0.0,0.0,0.0,0.0,0.0
1778616982.417,7279.426,0.0,0.0,0.0,0.0,0.0,0.0,0.0
1778616983.420,7280.429,0.0,0.0,0.0,0.0,0.0,0.0,0.0
1778616984.423,7281.432,0.0,0.0,0.0,0.0,0.0,0.0,0.0
1778616985.376,7282.385,0.0,0.0,0.0,0.0,0.0,0.0,0.0
1778616986.379,7283.388,0.0,0.0,0.0,0.0,0.0,0.0,0.0
1778616987.382,7284.391,0.0,0.0,0.0,0.0,0.0,0.0,0.0
1778616988.385,7285.394,0.0,0.0,0.0,0.0,0.0,0.0,0.0
1778616989.388,7286.397,0.0,0.0,0.0,0.0,0.0,0.0,0.0
1778616990.391,7287.400,0.0,0.0,0.0,0.0,0.0,0.0,0.0
1778616991.394,7288.403,0.0,0.0,0.0,0.0,0.0,0.0,0.0
1778616992.397,7289.406,0.0,0.0,0.0,0.0,0.0,0.0,0.0
1778616993.400,7290.409,0.0,0.0,0.0,0.0,0.0,0.0,0.0
