time_unix,monotonic,press_abs,press_diff,temperature,baro_alt,climb,airspeed,groundspeed
1778207083.765,1446.438,1003.419677734375,0.0,41.03,82.96619415283203,-0.0004183139535598457,0.0,0.0027013085782527924
1778207084.768,1447.440,1003.3946533203125,0.0,41.03,82.86050415039062,-0.0008481973200105131,0.0,0.0027927199844270945
1778207085.773,1448.445,1003.4121704101562,0.0,41.03,82.83143615722656,-0.0008387857233174145,0.0,0.002172362757846713
1778207086.776,1449.448,1003.3946533203125,0.0,41.03,83.1247329711914,-0.0009160303161479533,0.0,0.001435951329767704
1778207087.778,1450.451,1003.4046630859375,0.0,41.03,82.9159927368164,-0.0006682355306111276,0.0,0.00039144925540313125
1778207088.781,1451.454,1003.4171752929688,0.0,41.03,82.7442398071289,0.0003974646097049117,0.0,0.0027048978954553604
1778207089.784,1452.457,1003.4021606445312,0.0,41.04,83.10359191894531,-0.0001630169863346964,0.0,0.004233490210026503
1778207090.788,1453.460,1003.3922729492188,0.0,41.04,82.99789428710938,-0.0008900188258849084,0.0,0.003733130870386958
1778207091.791,1454.463,1003.399658203125,0.0,41.04,82.75745391845703,-0.0007797839934937656,0.0,0.0028246843721717596
1778207092.793,1455.466,1003.3771362304688,0.0,41.04,82.9159927368164,-0.00023500379757024348,0.0,0.001874615903943777
1778207093.797,1456.469,1003.4047241210938,0.0,41.05,83.04017639160156,-0.0008449190063402057,0.0,0.0011288403766229749
1778207094.800,1457.472,1003.384765625,0.0,41.05,83.21985626220703,-0.0006511962274089456,0.0,0.0011651046806946397
1778207095.804,1458.477,1003.3947143554688,0.0,41.05,82.7891616821289,0.00033382466062903404,0.0,0.0016496547032147646
1778207096.757,1459.429,1003.3797607421875,0.0,41.05,82.95825958251953,0.001382022281177342,0.0,0.002220896538347006
1778207097.760,1460.433,1003.4022216796875,0.0,41.05,83.08245086669922,0.0011790241114795208,0.0,0.002641443395987153
1778207098.764,1461.436,1003.3947143554688,0.0,41.06,82.9159927368164,0.0002730674168560654,0.0,0.0031907286029309034
1778207099.767,1462.439,1003.3922729492188,0.0,41.06,82.9159927368164,0.0002466283331159502,0.0,0.003406780306249857
1778207100.771,1463.443,1003.417236328125,0.0,41.06,82.83143615722656,-0.00011324634397169575,0.0,0.003352883504703641
1778207101.776,1464.448,1003.4197387695312,0.0,41.07,82.59890747070312,-0.0005842768587172031,0.0,0.0023815976455807686
1778207102.779,1465.451,1003.3797607421875,0.0,41.06,82.76801300048828,-0.0016782635357230902,0.0,0.0034999707713723183
1778207103.782,1466.454,1003.3822631835938,0.0,41.06,82.97676086425781,-0.001311204512603581,0.0,0.0030798683874309063
1778207104.785,1467.457,1003.3947143554688,0.0,41.06,82.95825958251953,-0.0009208288975059986,0.0,0.0024973636027425528
1778207105.788,1468.460,1003.3897705078125,0.0,41.07,82.93712615966797,-0.0008622054592706263,0.0,0.0032678842544555664
1778207106.793,1469.465,1003.3922729492188,0.0,41.07,82.76801300048828,-0.0003549506363924593,0.0,0.002696160925552249
1778207107.796,1470.468,1003.3572387695312,0.0,41.07,82.92655181884766,-0.0009577923337928951,0.0,0.0035405661910772324
1778207108.799,1471.471,1003.3897705078125,0.0,41.07,83.06395721435547,-0.000626816472504288,0.0,0.0028485015500336885
1778207109.802,1472.474,1003.3948364257812,0.0,41.08,82.93712615966797,-0.0013934934977442026,0.0,0.002748811384662986
1778207110.805,1473.477,1003.4098510742188,0.0,41.09,82.83143615722656,-0.0002667983353603631,0.0,0.0030498825944960117
1778207111.758,1474.430,1003.3873291015625,0.0,41.08,82.88427734375,0.0005320011987350881,0.0,0.002425365149974823
1778207112.762,1475.434,1003.3973388671875,0.0,41.08,83.18814086914062,0.0010061883367598057,0.0,0.0018850847845897079
1778207113.765,1476.438,1003.4122924804688,0.0,41.09,82.83143615722656,0.0016119431238621473,0.0,0.0014390656724572182
1778207114.769,1477.441,1003.40234375,0.0,41.09,83.02168273925781,0.0013891007984057069,0.0,0.001624198048375547
1778207115.772,1478.444,1003.3848266601562,0.0,41.08,83.16964721679688,0.0007171892793849111,0.0,0.0013356440467759967
1778207116.775,1479.447,1003.4223022460938,0.0,41.1,83.10623931884766,-0.00037757938844151795,0.0,0.0014972927747294307
1778207117.780,1480.452,1003.3973388671875,0.0,41.1,82.81029510498047,-0.0009044926846399903,0.0,0.0018733394099399447
1778207118.783,1481.455,1003.3948364257812,0.0,41.1,82.76801300048828,-0.0006307213334366679,0.0,0.0017106498125940561
1778207119.786,1482.458,1003.3798217773438,0.0,41.1,82.87370300292969,-0.00160928163677454,0.0,0.0012916511623188853
1778207120.789,1483.461,1003.3798217773438,0.0,41.1,82.84465026855469,-0.00031134896562434733,0.0,0.001490758266299963
1778207121.791,1484.464,1003.3848266601562,0.0,41.11,83.00054168701172,-0.0009974687127396464,0.0,0.0022912337444722652
1778207122.794,1485.466,1003.3973388671875,0.0,41.11,82.96090698242188,-0.0006618700572289526,0.0,0.003213930642232299
1778207123.797,1486.469,1003.4098510742188,0.0,41.11,83.06395721435547,-0.0006724713020958006,0.0,0.003768499009311199
1778207124.800,1487.472,1003.4048461914062,0.0,41.11,82.77066040039062,-0.0007289315108209848,0.0,0.0033491780050098896
1778207125.803,1488.475,1003.427490234375,0.0,41.12,82.85520935058594,-0.00010935122554656118,0.0,0.0021940215956419706
1778207126.756,1489.429,1003.4149780273438,0.0,41.12,82.74951934814453,0.00013377929280977696,0.0,0.0025881414767354727
1778207127.761,1490.433,1003.4049682617188,0.0,41.13,83.22249603271484,-0.00014024476695340127,0.0,0.0018403275171294808
1778207128.764,1491.436,1003.3949584960938,0.0,41.12,82.98204803466797,-0.00024695537285879254,0.0,0.001967417309060693
1778207129.767,1492.439,1003.407470703125,0.0,41.13,83.19343566894531,-0.0003591847780626267,0.0,0.0011070040054619312
1778207130.771,1493.443,1003.3999633789062,0.0,41.13,82.7812271118164,-0.0005971924401819706,0.0,0.002055761404335499
1778207131.775,1494.447,1003.4224853515625,0.0,41.13,82.91863250732422,-0.0006347255548462272,0.0,0.00368709908798337
1778207132.778,1495.450,1003.4199829101562,0.0,41.13,83.00318908691406,-0.0005934998043812811,0.0,0.00359060219489038
1778207133.782,1496.454,1003.3974609375,0.0,41.13,82.89749145507812,0.00039149040821939707,0.0,0.0040319873951375484
1778207134.786,1497.458,1003.3899536132812,0.0,41.13,82.91863250732422,0.0015230196295306087,0.0,0.003115616971626878
1778207135.788,1498.461,1003.4024658203125,0.0,41.14,82.93976593017578,0.0014342766953632236,0.0,0.0026328095700591803
1778207136.792,1499.464,1003.4099731445312,0.0,41.14,82.85520935058594,0.0017411194276064634,0.0,0.002908659866079688
1778207137.795,1500.467,1003.4124755859375,0.0,41.15,82.73895263671875,0.0021602658089250326,0.0,0.004007681272923946
1778207138.799,1501.471,1003.4224853515625,0.0,41.15,82.98204803466797,0.0015505298506468534,0.0,0.0028305589221417904
1778207139.755,1502.428,1003.4149780273438,0.0,41.15,82.98204803466797,0.0013111260486766696,0.0,0.0029503328260034323
1778207140.759,1503.431,1003.3775024414062,0.0,41.14,82.98204803466797,0.0012260917574167252,0.0,0.003281782381236553
1778207141.762,1504.434,1003.4049682617188,0.0,41.15,83.00318908691406,0.0019490825943648815,0.0,0.0025065650697797537
1778207142.765,1505.438,1003.4150390625,0.0,41.15,83.06659698486328,0.0019390886882320046,0.0,0.0029472250025719404
