time_unix,monotonic,rpm,duty_cycle,motor_current,input_voltage,temperature,fault_code
1778616234.731,6531.740,0.0,0.0,0.0,0.0,0.0,0
1778616235.232,6532.241,0.0,0.0,0.0,0.0,0.0,0
1778616235.684,6532.693,0.0,0.0,0.0,0.0,0.0,0
1778616236.185,6533.194,0.0,0.0,0.0,0.0,0.0,0
1778616236.687,6533.696,0.0,0.0,0.0,0.0,0.0,0
1778616237.188,6534.197,0.0,0.0,0.0,0.0,0.0,0
1778616237.689,6534.699,0.0,0.0,0.0,0.0,0.0,0
1778616238.191,6535.200,0.0,0.0,0.0,0.0,0.0,0
1778616238.692,6535.701,0.0,0.0,0.0,0.0,0.0,0
1778616239.194,6536.203,0.0,0.0,0.0,0.0,0.0,0
1778616239.696,6536.705,0.0,0.0,0.0,0.0,0.0,0
1778616240.197,6537.206,0.0,0.0,0.0,0.0,0.0,0
1778616240.698,6537.708,0.0,0.0,0.0,0.0,0.0,0
1778616241.200,6538.209,0.0,0.0,0.0,0.0,0.0,0
1778616241.701,6538.711,0.0,0.0,0.0,0.0,0.0,0
1778616242.203,6539.212,0.0,0.0,0.0,0.0,0.0,0
1778616242.705,6539.714,0.0,0.0,0.0,0.0,0.0,0
1778616243.207,6540.216,0.0,0.0,0.0,0.0,0.0,0
1778616243.708,6540.717,0.0,0.0,0.0,0.0,0.0,0
1778616244.210,6541.219,0.0,0.0,0.0,0.0,0.0,0
1778616244.712,6541.721,0.0,0.0,0.0,0.0,0.0,0
1778616245.213,6542.222,0.0,0.0,0.0,0.0,0.0,0
1778616245.715,6542.724,0.0,0.0,0.0,0.0,0.0,0
1778616246.216,6543.225,0.0,0.0,0.0,0.0,0.0,0
1778616246.718,6543.727,0.0,0.0,0.0,0.0,0.0,0
1778616247.219,6544.228,0.0,0.0,0.0,0.0,0.0,0
1778616247.721,6544.730,0.0,0.0,0.0,0.0,0.0,0
1778616248.223,6545.232,0.0,0.0,0.0,0.0,0.0,0
1778616248.724,6545.733,0.0,0.0,0.0,0.0,0.0,0
1778616249.226,6546.235,0.0,0.0,0.0,0.0,0.0,0
1778616249.727,6546.736,0.0,0.0,0.0,0.0,0.0,0
1778616250.228,6547.238,0.0,0.0,0.0,0.0,0.0,0
1778616250.730,6547.739,0.0,0.0,0.0,0.0,0.0,0
1778616251.231,6548.241,0.0,0.0,0.0,0.0,0.0,0
1778616251.733,6548.742,0.0,0.0,0.0,0.0,0.0,0
1778616252.184,6549.193,0.0,0.0,0.0,0.0,0.0,0
1778616252.686,6549.695,0.0,0.0,0.0,0.0,0.0,0
1778616253.187,6550.196,0.0,0.0,0.0,0.0,0.0,0
1778616253.689,6550.698,0.0,0.0,0.0,0.0,0.0,0
1778616254.190,6551.199,0.0,0.0,0.0,0.0,0.0,0
1778616254.692,6551.701,0.0,0.0,0.0,0.0,0.0,0
1778616255.193,6552.202,0.0,0.0,0.0,0.0,0.0,0
1778616255.694,6552.704,0.0,0.0,0.0,0.0,0.0,0
1778616256.196,6553.205,0.0,0.0,0.0,0.0,0.0,0
1778616256.698,6553.707,0.0,0.0,0.0,0.0,0.0,0
1778616257.199,6554.208,0.0,0.0,0.0,0.0,0.0,0
1778616257.700,6554.709,0.0,0.0,0.0,0.0,0.0,0
1778616258.202,6555.211,0.0,0.0,0.0,0.0,0.0,0
1778616258.703,6555.712,0.0,0.0,0.0,0.0,0.0,0
1778616259.205,6556.214,0.0,0.0,0.0,0.0,0.0,0
1778616259.706,6556.715,0.0,0.0,0.0,0.0,0.0,0
1778616260.208,6557.217,0.0,0.0,0.0,0.0,0.0,0
1778616260.709,6557.718,0.0,0.0,0.0,0.0,0.0,0
1778616261.210,6558.220,0.0,0.0,0.0,0.0,0.0,0
1778616261.712,6558.721,0.0,0.0,0.0,0.0,0.0,0
1778616262.213,6559.222,0.0,0.0,0.0,0.0,0.0,0
1778616262.715,6559.724,0.0,0.0,0.0,0.0,0.0,0
1778616263.216,6560.226,0.0,0.0,0.0,0.0,0.0,0
1778616263.718,6560.727,0.0,0.0,0.0,0.0,0.0,0
1778616264.220,6561.229,0.0,0.0,0.0,0.0,0.0,0
1778616264.721,6561.730,0.0,0.0,0.0,0.0,0.0,0
1778616265.223,6562.232,0.0,0.0,0.0,0.0,0.0,0
1778616265.724,6562.734,0.0,0.0,0.0,0.0,0.0,0
1778616266.226,6563.235,0.0,0.0,0.0,0.0,0.0,0
1778616266.727,6563.736,0.0,0.0,0.0,0.0,0.0,0
1778616267.229,6564.238,0.0,0.0,0.0,0.0,0.0,0
1778616267.730,6564.739,0.0,0.0,0.0,0.0,0.0,0
1778616268.232,6565.241,0.0,0.0,0.0,0.0,0.0,0
1778616268.683,6565.692,0.0,0.0,0.0,0.0,0.0,0
1778616269.185,6566.194,0.0,0.0,0.0,0.0,0.0,0
1778616269.686,6566.695,0.0,0.0,0.0,0.0,0.0,0
1778616270.188,6567.197,0.0,0.0,0.0,0.0,0.0,0
1778616270.689,6567.698,0.0,0.0,0.0,0.0,0.0,0
1778616271.191,6568.200,0.0,0.0,0.0,0.0,0.0,0
1778616271.692,6568.701,0.0,0.0,0.0,0.0,0.0,0
1778616272.194,6569.203,0.0,0.0,0.0,0.0,0.0,0
1778616272.695,6569.704,0.0,0.0,0.0,0.0,0.0,0
1778616273.197,6570.206,0.0,0.0,0.0,0.0,0.0,0
1778616273.698,6570.707,0.0,0.0,0.0,0.0,0.0,0
1778616274.200,6571.209,0.0,0.0,0.0,0.0,0.0,0
1778616274.701,6571.710,0.0,0.0,0.0,0.0,0.0,0
1778616275.203,6572.212,0.0,0.0,0.0,0.0,0.0,0
1778616275.704,6572.713,0.0,0.0,0.0,0.0,0.0,0
1778616276.206,6573.215,0.0,0.0,0.0,0.0,0.0,0
1778616276.707,6573.716,0.0,0.0,0.0,0.0,0.0,0
1778616277.209,6574.218,0.0,0.0,0.0,0.0,0.0,0
1778616277.710,6574.719,0.0,0.0,0.0,0.0,0.0,0
1778616278.212,6575.221,0.0,0.0,0.0,0.0,0.0,0
1778616278.713,6575.722,0.0,0.0,0.0,0.0,0.0,0
1778616279.215,6576.224,0.0,0.0,0.0,0.0,0.0,0
1778616279.716,6576.725,0.0,0.0,0.0,0.0,0.0,0
1778616280.218,6577.227,0.0,0.0,0.0,0.0,0.0,0
