time_unix,monotonic,press_abs,press_diff,temperature,baro_alt,climb,airspeed,groundspeed
1778207954.324,2316.996,1003.4277954101562,0.0,42.32,83.1458740234375,0.00984228402376175,0.0,0.9680597186088562
1778207955.277,2317.949,1003.4052734375,0.0,42.32,83.08245086669922,0.11505453288555145,0.0,0.3165242373943329
1778207956.280,2318.952,1003.4277954101562,0.0,42.32,83.1247329711914,0.14382244646549225,0.0,0.26711806654930115
1778207957.284,2319.956,1003.4177856445312,0.0,42.32,83.21985626220703,0.14541172981262207,0.0,0.42010849714279175
1778207958.287,2320.959,1003.41015625,0.0,42.33,82.95825958251953,0.13087010383605957,0.0,0.6722769737243652
1778207959.290,2321.962,1003.4127807617188,0.0,42.32,83.20928192138672,0.09836207330226898,0.0,1.119518756866455
1778207960.293,2322.965,1003.4428100585938,0.0,42.33,83.0111083984375,0.07140636444091797,0.0,1.5933787822723389
1778207961.295,2323.968,1003.4453125,0.0,42.33,83.1247329711914,0.04143360257148743,0.0,2.1631531715393066
1778207962.299,2324.971,1003.4453125,0.0,42.33,83.00054168701172,0.012662642635405064,0.0,0.14877097308635712
1778207963.302,2325.974,1003.4328002929688,0.0,42.33,83.23043060302734,0.05760900676250458,0.0,0.2505020499229431
1778207964.305,2326.977,1003.4453125,0.0,42.33,82.94770050048828,0.06477972865104675,0.0,0.08495409041643143
1778207965.307,2327.979,1003.4301147460938,0.0,42.34,83.21192932128906,0.045068565756082535,0.0,0.016581520438194275
1778207966.310,2328.982,1003.4075317382812,0.0,42.34,83.19078826904297,0.03757725656032562,0.0,0.07142235338687897
1778207967.314,2329.986,1003.442626953125,0.0,42.34,83.2859115600586,0.030337264761328697,0.0,0.3817875385284424
1778207968.317,2330.989,1003.43505859375,0.0,42.35,82.87370300292969,0.016947079449892044,0.0,0.8836256265640259
1778207969.320,2331.992,1003.43505859375,0.0,42.35,83.16964721679688,-0.010637834668159485,0.0,1.4325828552246094
1778207970.324,2332.996,1003.4199829101562,0.0,42.35,83.27534484863281,-0.03971618786454201,0.0,2.00268816947937
1778207971.277,2333.950,1003.4150390625,0.0,42.34,83.50786590576172,-0.06669773906469345,0.0,2.4865570068359375
1778207972.280,2334.953,1003.4149780273438,0.0,42.35,83.21456909179688,-0.08134916424751282,0.0,2.863349676132202
1778207973.285,2335.957,1003.4299926757812,0.0,42.35,83.04546356201172,-0.08454182744026184,0.0,3.2429356575012207
1778207974.289,2336.961,1003.4024658203125,0.0,42.35,83.24628448486328,-0.08329787105321884,0.0,3.6235504150390625
1778207975.292,2337.965,1003.4349975585938,0.0,42.36,83.21456909179688,-0.07296302169561386,0.0,3.9459238052368164
1778207976.296,2338.968,1003.4223022460938,0.0,42.36,83.27798461914062,-0.0695326179265976,0.0,4.3376994132995605
1778207977.299,2339.971,1003.4349975585938,0.0,42.36,83.0877456665039,-0.06730464100837708,0.0,4.696304798126221
1778207978.303,2340.975,1003.4349975585938,0.0,42.36,83.38632202148438,-0.0713643878698349,0.0,5.127437114715576
1778207979.306,2341.979,1003.414794921875,0.0,42.36,83.44709777832031,-0.06184479966759682,0.0,0.2305452972650528
1778207980.310,2342.982,1003.4248046875,0.0,42.36,83.11151885986328,0.05177659913897514,0.0,0.1583581417798996
1778207981.317,2343.990,1003.3772583007812,0.0,42.36,83.15379333496094,0.04386324808001518,0.0,0.11925626546144485
1778207982.321,2344.993,1003.4324951171875,0.0,42.36,83.30176544189453,0.019231196492910385,0.0,0.015835348516702652
1778207983.324,2345.996,1003.4098510742188,0.0,42.36,83.182861328125,0.004226884339004755,0.0,0.01635245978832245
1778207984.278,2346.950,1003.4450073242188,0.0,42.36,83.21721649169922,-0.005892995744943619,0.0,0.02496078610420227
1778207985.282,2347.954,1003.4297485351562,0.0,42.37,83.28063201904297,-0.00913812406361103,0.0,0.06056387349963188
1778207986.285,2348.957,1003.4297485351562,0.0,42.37,83.27798461914062,-0.011995975859463215,0.0,0.06926678866147995
1778207987.289,2349.961,1003.4072265625,0.0,42.37,82.98468780517578,-0.012631029821932316,0.0,0.014531130902469158
1778207988.293,2350.965,1003.4223022460938,0.0,42.37,83.04810333251953,-0.013243339024484158,0.0,0.029883969575166702
1778207989.296,2351.969,1003.4197998046875,0.0,42.36,83.13265991210938,-0.01692778430879116,0.0,0.025395352393388748
1778207990.299,2352.972,1003.4222412109375,0.0,42.37,83.227783203125,-0.01701981946825981,0.0,0.04208269715309143
1778207991.304,2353.976,1003.4273071289062,0.0,42.37,83.23834991455078,-0.018215268850326538,0.0,0.04862922430038452
1778207992.307,2354.979,1003.4147338867188,0.0,42.37,83.04810333251953,-0.01719430275261402,0.0,0.02108139917254448
1778207993.311,2355.983,1003.4222412109375,0.0,42.37,83.1220932006836,-0.020464295521378517,0.0,0.03077096864581108
1778207994.314,2356.986,1003.3621826171875,0.0,42.37,83.04810333251953,-0.028268737718462944,0.0,0.013725144788622856
1778207995.317,2357.989,1003.3921508789062,0.0,42.37,83.06924438476562,-0.03329820930957794,0.0,0.03637223690748215
1778207996.322,2358.994,1003.3921508789062,0.0,42.37,83.13265991210938,-0.0407964289188385,0.0,0.11556347459554672
1778207997.324,2359.997,1003.3946533203125,0.0,42.37,83.17494201660156,-0.043892648071050644,0.0,0.2140318751335144
1778207998.277,2360.950,1003.3971557617188,0.0,42.37,83.00582885742188,-0.04584705829620361,0.0,0.37274476885795593
1778207999.281,2361.953,1003.399658203125,0.0,42.37,83.21721649169922,-0.05594480782747269,0.0,1.007100224494934
1778208000.284,2362.956,1003.3720703125,0.0,42.37,83.2066421508789,-0.10849454998970032,0.0,2.0689194202423096
1778208001.287,2363.959,1003.4347534179688,0.0,42.38,83.32290649414062,-0.07272942364215851,0.0,1.8982082605361938
1778208002.291,2364.963,1003.3846435546875,0.0,42.37,83.25948333740234,0.02669621631503105,0.0,1.3362843990325928
1778208003.294,2365.966,1003.4121704101562,0.0,42.38,83.27005767822266,0.11101686954498291,0.0,0.8685606122016907
1778208004.297,2366.969,1003.4071044921875,0.0,42.38,83.42859649658203,0.1577300876379013,0.0,0.6576805710792542
1778208005.300,2367.972,1003.4171752929688,0.0,42.38,83.36518096923828,0.18017643690109253,0.0,0.5982507467269897
1778208006.304,2368.977,1003.419677734375,0.0,42.38,82.90013122558594,0.16402606666088104,0.0,0.8014956712722778
1778208007.308,2369.981,1003.4471435546875,0.0,42.38,83.33348083496094,0.13427704572677612,0.0,1.1387481689453125
1778208008.311,2370.984,1003.409423828125,0.0,42.39,83.23834991455078,0.10138661414384842,0.0,1.4887053966522217
1778208009.314,2371.987,1003.4071044921875,0.0,42.39,83.28063201904297,0.07384643703699112,0.0,1.8456650972366333
1778208010.317,2372.990,1003.4071044921875,0.0,42.38,83.36518096923828,0.051557596772909164,0.0,2.130539894104004
1778208011.322,2373.994,1003.3944091796875,0.0,42.39,83.26213073730469,0.029714925214648247,0.0,2.3390755653381348
1778208012.326,2374.998,1003.424560546875,0.0,42.39,83.25948333740234,0.017685100436210632,0.0,2.5004847049713135
1778208013.279,2375.951,1003.389404296875,0.0,42.39,83.31233215332031,-0.0022360512521117926,0.0,2.691157817840576
1778208014.283,2376.955,1003.4046020507812,0.0,42.39,83.28063201904297,-0.019392739981412888,0.0,2.917656660079956
1778208015.286,2377.958,1003.3994140625,0.0,42.39,83.42859649658203,-0.03249033913016319,0.0,3.0256993770599365
1778208016.290,2378.962,1003.4196166992188,0.0,42.39,83.00846862792969,-0.034351833164691925,0.0,0.12661677598953247
1778208017.293,2379.965,1003.3768310546875,0.0,42.4,83.26213073730469,-0.03527326136827469,0.0,0.2908123731613159
1778208018.296,2380.968,1003.3919067382812,0.0,42.39,83.19871520996094,-0.024504398927092552,0.0,0.5129626393318176
1778208019.299,2381.971,1003.3993530273438,0.0,42.4,83.3678207397461,-0.033691611140966415,0.0,0.6604405045509338
1778208020.303,2382.975,1003.3868408203125,0.0,42.4,83.15643310546875,-0.05001366510987282,0.0,0.7271001935005188
1778208021.306,2383.979,1003.3944091796875,0.0,42.39,83.32554626464844,-0.05020768567919731,0.0,0.8836050629615784
1778208022.309,2384.981,1003.4043579101562,0.0,42.4,83.41010284423828,-0.03274419531226158,0.0,0.15484170615673065
1778208023.312,2385.985,1003.4144287109375,0.0,42.4,83.1247329711914,-0.004380166530609131,0.0,0.013510605320334435
1778208024.316,2386.988,1003.4069213867188,0.0,42.4,83.15643310546875,-0.010139917023479939,0.0,0.10043012350797653
1778208025.320,2387.992,1003.4319458007812,0.0,42.4,83.28327178955078,-0.02184445783495903,0.0,0.03269350156188011
1778208026.323,2388.995,1003.409423828125,0.0,42.4,83.21985626220703,-0.018529396504163742,0.0,0.11583348363637924
1778208027.326,2389.998,1003.4168701171875,0.0,42.41,83.21985626220703,-0.016013186424970627,0.0,0.061337776482105255
1778208028.280,2390.952,1003.4043579101562,0.0,42.41,83.0322494506836,-0.01009497418999672,0.0,0.016946008428931236
1778208029.283,2391.955,1003.4243774414062,0.0,42.41,83.38896942138672,-0.015765756368637085,0.0,0.02760656550526619
1778208030.287,2392.959,1003.3992919921875,0.0,42.41,83.35725402832031,-0.016287952661514282,0.0,0.0249186959117651
1778208031.290,2393.962,1003.4043579101562,0.0,42.4,83.02960205078125,-0.012994322925806046,0.0,0.019870499148964882
1778208032.293,2394.966,1003.429443359375,0.0,42.4,83.32554626464844,-0.013674602843821049,0.0,0.02774433046579361
1778208033.296,2395.969,1003.3867797851562,0.0,42.41,83.21985626220703,-0.018385890871286392,0.0,0.018040750175714493
1778208034.301,2396.973,1003.4143676757812,0.0,42.41,83.32554626464844,-0.01693897508084774,0.0,0.06475923210382462
1778208035.304,2397.976,1003.4293823242188,0.0,42.41,83.28327178955078,-0.009328930638730526,0.0,0.0508456788957119
1778208036.307,2398.979,1003.4293823242188,0.0,42.42,83.06395721435547,-0.02697894163429737,0.0,0.09982619434595108
1778208037.311,2399.983,1003.4193725585938,0.0,42.41,83.137939453125,-0.019689999520778656,0.0,0.027307305485010147
1778208038.314,2400.986,1003.4168701171875,0.0,42.41,83.1167984008789,-0.019299687817692757,0.0,0.04648894816637039
1778208039.318,2401.990,1003.394287109375,0.0,42.41,83.17758178710938,-0.018559128046035767,0.0,0.007834265008568764
1778208040.321,2402.993,1003.3817749023438,0.0,42.41,83.34932708740234,-0.020621605217456818,0.0,0.02866523154079914
1778208041.324,2403.996,1003.3741455078125,0.0,42.41,83.34932708740234,-0.015972819179296494,0.0,0.15119725465774536
1778208042.277,2404.950,1003.4192504882812,0.0,42.42,83.62149047851562,-0.022326013073325157,0.0,0.1251194030046463
1778208043.284,2405.956,1003.4017944335938,0.0,42.42,83.20135498046875,-0.016129735857248306,0.0,0.17631129920482635
1778208044.288,2406.960,1003.404296875,0.0,42.41,83.2436294555664,-0.04385308921337128,0.0,0.17299358546733856
1778208045.292,2407.964,1003.416748046875,0.0,42.42,83.34932708740234,-0.046005845069885254,0.0,0.2643207907676697
1778208046.295,2408.967,1003.4292602539062,0.0,42.42,83.29647827148438,-0.025331752374768257,0.0,0.20916518568992615
1778208047.298,2409.970,1003.4391479492188,0.0,42.43,83.2859115600586,-0.01779313012957573,0.0,0.021263929083943367
1778208048.301,2410.973,1003.4067993164062,0.0,42.42,83.55806732177734,-0.012303748168051243,0.0,0.027407916262745857
1778208049.305,2411.978,1003.3890991210938,0.0,42.42,83.32818603515625,-0.01083915214985609,0.0,0.01613362692296505
1778208050.309,2412.981,1003.369140625,0.0,42.42,83.29647827148438,-0.013337385840713978,0.0,0.012197684496641159
1778208051.313,2413.986,1003.4191284179688,0.0,42.42,83.182861328125,-0.013630293309688568,0.0,0.011805222369730473
1778208052.318,2414.990,1003.4166259765625,0.0,42.42,83.43388366699219,-0.011380059644579887,0.0,0.015583847649395466
1778208053.324,2415.996,1003.404052734375,0.0,42.43,83.23307037353516,-0.016010083258152008,0.0,0.01163835171610117
1778208054.277,2416.949,1003.4091186523438,0.0,42.42,83.09830474853516,-0.012071412056684494,0.0,0.009088191203773022
1778208055.282,2417.954,1003.4366455078125,0.0,42.43,83.0111083984375,-0.017858797684311867,0.0,0.02315041422843933
1778208056.285,2418.957,1003.3965454101562,0.0,42.43,83.2859115600586,-0.012608703225851059,0.0,0.05094935745000839
1778208057.288,2419.961,1003.4366455078125,0.0,42.43,83.47616577148438,-0.0163118839263916,0.0,0.022753452882170677
1778208058.291,2420.963,1003.39404296875,0.0,42.43,83.2885513305664,-0.023302601650357246,0.0,0.03118462674319744
1778208059.298,2421.971,1003.4140625,0.0,42.43,83.26477813720703,-0.0244210846722126,0.0,0.038467731326818466
1778208060.303,2422.975,1003.4140625,0.0,42.43,83.0877456665039,-0.030024856328964233,0.0,0.050212182104587555
1778208061.306,2423.978,1003.4141235351562,0.0,42.43,83.137939453125,-0.03400477394461632,0.0,0.07634282857179642
1778208062.310,2424.982,1003.39404296875,0.0,42.43,83.47616577148438,-0.034245170652866364,0.0,0.09921790659427643
1778208063.313,2425.985,1003.3990478515625,0.0,42.43,83.19078826904297,-0.03360781446099281,0.0,0.13026830554008484
1778208064.316,2426.988,1003.366455078125,0.0,42.43,83.22249603271484,-0.035454221069812775,0.0,0.17693714797496796
1778208065.319,2427.991,1003.4065551757812,0.0,42.43,83.2040023803711,-0.03797231614589691,0.0,0.18921896815299988
1778208066.322,2428.995,1003.4115600585938,0.0,42.43,83.21456909179688,-0.02985941618680954,0.0,0.25986817479133606
1778208067.278,2429.950,1003.4014892578125,0.0,42.44,83.22249603271484,-0.03143463283777237,0.0,0.3053927719593048
1778208068.281,2430.953,1003.4140625,0.0,42.43,83.24628448486328,-0.04421006888151169,0.0,0.3769391179084778
1778208069.286,2431.958,1003.4090576171875,0.0,42.44,83.2489242553711,-0.038596879690885544,0.0,0.4698610305786133
1778208070.290,2432.962,1003.4039916992188,0.0,42.44,83.27798461914062,-0.02783563733100891,0.0,0.5303895473480225
1778208071.295,2433.967,1003.4039916992188,0.0,42.44,83.22513580322266,-0.047225456684827805,0.0,0.5598689913749695
1778208072.298,2434.970,1003.386474609375,0.0,42.44,83.3096923828125,-0.029481962323188782,0.0,0.6867159605026245
1778208073.302,2435.974,1003.386474609375,0.0,42.43,83.22513580322266,-0.039947863668203354,0.0,0.7600216269493103
1778208074.305,2436.978,1003.3839721679688,0.0,42.44,83.0560302734375,-0.04500048607587814,0.0,0.8939738869667053
1778208075.308,2437.981,1003.4090576171875,0.0,42.44,83.0560302734375,-0.03599319979548454,0.0,1.0025962591171265
1778208076.312,2438.984,1003.396484375,0.0,42.44,83.24628448486328,-0.03241800144314766,0.0,1.1524486541748047
1778208077.315,2439.987,1003.4364624023438,0.0,42.45,83.1220932006836,-0.048839271068573,0.0,1.2602009773254395
1778208078.319,2440.991,1003.3938598632812,0.0,42.44,83.24628448486328,-0.02892952412366867,0.0,1.41056227684021
1778208079.322,2441.994,1003.368896484375,0.0,42.44,83.14058685302734,-0.04640686511993408,0.0,1.504274845123291
1778208080.326,2442.998,1003.3612060546875,0.0,42.45,83.4153823852539,-0.048399507999420166,0.0,1.7701809406280518
1778208081.279,2443.951,1003.3739013671875,0.0,42.44,83.5844955444336,-0.01451094914227724,0.0,1.9605995416641235
1778208082.282,2444.954,1003.4038696289062,0.0,42.45,83.29119873046875,-0.011135864071547985,0.0,1.8800989389419556
1778208083.286,2445.959,1003.3938598632812,0.0,42.45,83.29119873046875,-0.09727088361978531,0.0,2.7490322589874268
1778208084.290,2446.962,1003.4314575195312,0.0,42.45,83.0771713256836,-0.07227350026369095,0.0,2.3366143703460693
1778208085.292,2447.965,1003.3764038085938,0.0,42.44,83.22513580322266,-0.04723983258008957,0.0,2.9131922721862793
1778208086.295,2448.967,1003.3739013671875,0.0,42.44,83.48936462402344,-0.026974668726325035,0.0,2.912930488586426
1778208087.298,2449.971,1003.3938598632812,0.0,42.45,83.26741790771484,-0.011867105029523373,0.0,3.0100173950195312
1778208088.302,2450.974,1003.4188842773438,0.0,42.45,83.33082580566406,-0.05836544558405876,0.0,3.3619091510772705
1778208089.305,2451.977,1003.3737182617188,0.0,42.45,83.23571014404297,-0.0362507663667202,0.0,3.2464678287506104
1778208090.310,2452.982,1003.4364013671875,0.0,42.46,83.32026672363281,-0.0477779321372509,0.0,3.594806432723999
1778208091.314,2453.987,1003.3739013671875,0.0,42.44,83.2885513305664,-0.0463772751390934,0.0,3.4908528327941895
1778208092.319,2454.991,1003.3839111328125,0.0,42.45,83.24628448486328,-0.043207451701164246,0.0,3.7350354194641113
1778208093.321,2455.994,1003.3912353515625,0.0,42.46,83.17228698730469,-0.047895729541778564,0.0,3.9047319889068604
1778208094.327,2456.999,1003.4238891601562,0.0,42.45,83.22513580322266,-0.055311042815446854,0.0,4.202603340148926
1778208095.283,2457.956,1003.3662109375,0.0,42.45,83.07453155517578,-0.05441215634346008,0.0,4.447740077972412
1778208096.286,2458.958,1003.391357421875,0.0,42.45,83.47616577148438,-0.05795377865433693,0.0,4.610283374786377
1778208097.290,2459.962,1003.3887329101562,0.0,42.46,83.32818603515625,-0.06754950433969498,0.0,4.8493828773498535
1778208098.293,2460.965,1003.3912353515625,0.0,42.45,83.0322494506836,-0.06316486746072769,0.0,5.013727188110352
1778208099.296,2461.968,1003.4088745117188,0.0,42.45,83.0877456665039,-0.06267166882753372,0.0,5.166670322418213
1778208100.299,2462.972,1003.411376953125,0.0,42.45,83.52635955810547,-0.057610124349594116,0.0,5.218568325042725
1778208101.304,2463.977,1003.3938598632812,0.0,42.45,83.5395736694336,-0.0510728545486927,0.0,5.327884197235107
1778208102.308,2464.980,1003.3837280273438,0.0,42.46,83.2436294555664,-0.0440790131688118,0.0,5.389143466949463
1778208103.311,2465.983,1003.396240234375,0.0,42.45,83.22249603271484,-0.04140552133321762,0.0,5.498157024383545
1778208104.315,2466.987,1003.396240234375,0.0,42.46,83.26213073730469,-0.04909287393093109,0.0,5.624927997589111
1778208105.320,2467.992,1003.396240234375,0.0,42.46,83.0322494506836,-0.05342451483011246,0.0,5.687046051025391
1778208106.324,2468.996,1003.36865234375,0.0,42.46,83.33876037597656,-0.05338756740093231,0.0,5.811071395874023
1778208107.327,2469.999,1003.3937377929688,0.0,42.46,83.37046813964844,-0.046733226627111435,0.0,5.856407165527344
1778208108.280,2470.952,1003.3761596679688,0.0,42.46,83.4127426147461,-0.04340623319149017,0.0,5.932243347167969
1778208109.283,2471.956,1003.3911743164062,0.0,42.47,83.46559143066406,-0.04374878108501434,0.0,5.987884521484375
1778208110.287,2472.959,1003.3811645507812,0.0,42.47,83.39160919189453,-0.04426651448011398,0.0,6.027514934539795
1778208111.289,2473.961,1003.3660888671875,0.0,42.47,83.39160919189453,-0.04547654092311859,0.0,6.048266887664795
1778208112.294,2474.966,1003.3961791992188,0.0,42.47,83.4127426147461,-0.04446670040488243,0.0,6.00614595413208
1778208113.297,2475.969,1003.3986206054688,0.0,42.47,83.56070709228516,-0.041225507855415344,0.0,6.04351282119751
1778208114.301,2476.973,1003.3935546875,0.0,42.47,83.09830474853516,-0.041093312203884125,0.0,6.0779619216918945
1778208115.305,2477.977,1003.3660888671875,0.0,42.47,83.182861328125,-0.04059639573097229,0.0,6.120650768280029
1778208116.309,2478.981,1003.3810424804688,0.0,42.47,83.38367462158203,-0.04398335516452789,0.0,6.148338794708252
1778208117.312,2479.984,1003.3910522460938,0.0,42.47,83.2040023803711,-0.045640408992767334,0.0,6.12428617477417
1778208118.314,2480.986,1003.4136352539062,0.0,42.47,83.3096923828125,-0.04857661947607994,0.0,6.147090911865234
1778208119.319,2481.991,1003.3960571289062,0.0,42.48,83.39424896240234,-0.046070970594882965,0.0,6.130739688873291
1778208120.322,2482.994,1003.3934936523438,0.0,42.48,83.22513580322266,-0.04076443240046501,0.0,6.090177536010742
1778208121.326,2483.998,1003.3660888671875,0.0,42.47,83.2040023803711,-0.03766680881381035,0.0,6.058032035827637
1778208122.280,2484.952,1003.3684692382812,0.0,42.47,83.5422134399414,-0.03838542848825455,0.0,6.011628150939941
1778208123.284,2485.957,1003.403564453125,0.0,42.47,83.21456909179688,-0.0384063757956028,0.0,5.982780456542969
1778208124.287,2486.959,1003.3735961914062,0.0,42.47,83.2040023803711,-0.042269982397556305,0.0,5.933329105377197
1778208125.291,2487.963,1003.4060668945312,0.0,42.48,83.26741790771484,-0.04156731441617012,0.0,5.898833751678467
