time_unix,monotonic,press_abs,press_diff,temperature,baro_alt,climb,airspeed,groundspeed
1778258823.260,772.216,0.0,0.0,0.0,0.0,0.0,0.0,0.0
1778258824.213,773.169,0.0,0.0,0.0,0.0,0.0,0.0,0.0
1778258825.216,774.172,0.0,0.0,0.0,0.0,0.0,0.0,0.0
1778258826.219,775.175,0.0,0.0,0.0,0.0,0.0,0.0,0.0
1778258827.222,776.178,0.0,0.0,0.0,0.0,0.0,0.0,0.0
1778258828.225,777.181,0.0,0.0,0.0,0.0,0.0,0.0,0.0
1778258829.228,778.184,0.0,0.0,0.0,0.0,0.0,0.0,0.0
1778258830.231,779.187,0.0,0.0,0.0,0.0,0.0,0.0,0.0
1778258831.234,780.190,0.0,0.0,0.0,0.0,0.0,0.0,0.0
1778258832.237,781.193,0.0,0.0,0.0,0.0,0.0,0.0,0.0
1778258833.240,782.196,0.0,0.0,0.0,0.0,0.0,0.0,0.0
1778258834.243,783.199,0.0,0.0,0.0,0.0,0.0,0.0,0.0
1778258835.246,784.202,0.0,0.0,0.0,0.0,0.0,0.0,0.0
1778258836.250,785.206,0.0,0.0,0.0,0.0,0.0,0.0,0.0
1778258837.253,786.209,0.0,0.0,0.0,0.0,0.0,0.0,0.0
1778258838.256,787.212,0.0,0.0,0.0,0.0,0.0,0.0,0.0
1778258839.260,788.216,0.0,0.0,0.0,0.0,0.0,0.0,0.0
1778258840.213,789.169,0.0,0.0,0.0,0.0,0.0,0.0,0.0
1778258841.217,790.173,0.0,0.0,0.0,0.0,0.0,0.0,0.0
1778258842.220,791.176,0.0,0.0,0.0,0.0,0.0,0.0,0.0
1778258843.223,792.179,0.0,0.0,0.0,0.0,0.0,0.0,0.0
1778258844.227,793.183,0.0,0.0,0.0,0.0,0.0,0.0,0.0
1778258845.230,794.186,0.0,0.0,0.0,0.0,0.0,0.0,0.0
1778258846.233,795.189,0.0,0.0,0.0,0.0,0.0,0.0,0.0
1778258847.237,796.193,0.0,0.0,0.0,0.0,0.0,0.0,0.0
1778258848.240,797.196,0.0,0.0,0.0,0.0,0.0,0.0,0.0
1778258849.244,798.199,0.0,0.0,0.0,0.0,0.0,0.0,0.0
1778258850.247,799.203,0.0,0.0,0.0,0.0,0.0,0.0,0.0
1778258851.251,800.207,0.0,0.0,0.0,0.0,0.0,0.0,0.0
1778258852.254,801.210,0.0,0.0,0.0,0.0,0.0,0.0,0.0
1778258853.257,802.213,0.0,0.0,0.0,0.0,0.0,0.0,0.0
1778258854.260,803.216,0.0,0.0,0.0,0.0,0.0,0.0,0.0
1778258855.213,804.169,0.0,0.0,0.0,0.0,0.0,0.0,0.0
1778258856.217,805.173,0.0,0.0,0.0,0.0,0.0,0.0,0.0
1778258857.220,806.176,0.0,0.0,0.0,0.0,0.0,0.0,0.0
1778258858.223,807.179,0.0,0.0,0.0,0.0,0.0,0.0,0.0
1778258859.226,808.182,0.0,0.0,0.0,0.0,0.0,0.0,0.0
1778258860.229,809.185,0.0,0.0,0.0,0.0,0.0,0.0,0.0
1778258861.232,810.188,0.0,0.0,0.0,0.0,0.0,0.0,0.0
1778258862.236,811.191,0.0,0.0,0.0,0.0,0.0,0.0,0.0
1778258863.239,812.194,0.0,0.0,0.0,0.0,0.0,0.0,0.0
1778258864.242,813.198,0.0,0.0,0.0,0.0,0.0,0.0,0.0
1778258865.245,814.201,0.0,0.0,0.0,0.0,0.0,0.0,0.0
1778258866.248,815.204,0.0,0.0,0.0,0.0,0.0,0.0,0.0
1778258867.251,816.207,0.0,0.0,0.0,0.0,0.0,0.0,0.0
1778258868.255,817.211,0.0,0.0,0.0,0.0,0.0,0.0,0.0
1778258869.257,818.213,0.0,0.0,0.0,0.0,0.0,0.0,0.0
1778258870.261,819.217,0.0,0.0,0.0,0.0,0.0,0.0,0.0
1778258871.214,820.170,0.0,0.0,0.0,0.0,0.0,0.0,0.0
1778258872.217,821.173,0.0,0.0,0.0,0.0,0.0,0.0,0.0
1778258873.221,822.177,0.0,0.0,0.0,0.0,0.0,0.0,0.0
1778258874.224,823.179,0.0,0.0,0.0,0.0,0.0,0.0,0.0
1778258875.227,824.183,0.0,0.0,0.0,0.0,0.0,0.0,0.0
1778258876.230,825.186,0.0,0.0,0.0,0.0,0.0,0.0,0.0
1778258877.233,826.189,0.0,0.0,0.0,0.0,0.0,0.0,0.0
1778258878.236,827.192,0.0,0.0,0.0,0.0,0.0,0.0,0.0
1778258879.240,828.196,0.0,0.0,0.0,0.0,0.0,0.0,0.0
1778258880.243,829.199,0.0,0.0,0.0,0.0,0.0,0.0,0.0
1778258881.246,830.202,0.0,0.0,0.0,0.0,0.0,0.0,0.0
1778258882.250,831.205,0.0,0.0,0.0,0.0,0.0,0.0,0.0
1778258883.253,832.209,0.0,0.0,0.0,0.0,0.0,0.0,0.0
1778258884.256,833.212,0.0,0.0,0.0,0.0,0.0,0.0,0.0
1778258885.259,834.215,0.0,0.0,0.0,0.0,0.0,0.0,0.0
1778258886.262,835.218,0.0,0.0,0.0,0.0,0.0,0.0,0.0
1778258887.216,836.172,0.0,0.0,0.0,0.0,0.0,0.0,0.0
1778258888.219,837.175,0.0,0.0,0.0,0.0,0.0,0.0,0.0
1778258889.222,838.178,0.0,0.0,0.0,0.0,0.0,0.0,0.0
1778258890.226,839.182,0.0,0.0,0.0,0.0,0.0,0.0,0.0
1778258891.229,840.185,0.0,0.0,0.0,0.0,0.0,0.0,0.0
1778258892.233,841.189,0.0,0.0,0.0,0.0,0.0,0.0,0.0
1778258893.235,842.191,0.0,0.0,0.0,0.0,0.0,0.0,0.0
1778258894.238,843.194,0.0,0.0,0.0,0.0,0.0,0.0,0.0
1778258895.241,844.197,0.0,0.0,0.0,0.0,0.0,0.0,0.0
1778258896.245,845.201,0.0,0.0,0.0,0.0,0.0,0.0,0.0
1778258897.249,846.205,0.0,0.0,0.0,0.0,0.0,0.0,0.0
1778258898.252,847.208,0.0,0.0,0.0,0.0,0.0,0.0,0.0
